YR	TSI[W/m2]	CO2[ppm]	VOLC[AOD]
1421	1360.647237	280.2720032	0.001109083
1422	1360.612467	280.2659912	0.00110408
1423	1360.586823	280.2630005	0.0011024
1424	1360.557872	280.2739868	0.001101835
1425	1360.530111	280.2999878	0.001101646
1426	1360.501912	280.3039856	0.001101582
1427	1360.473887	280.3240051	0.001101561
1428	1360.450368	280.3340149	0.001101554
1429	1360.444885	280.3760071	0.001101551
1430	1360.446879	280.4100037	0.001101551
1431	1360.446167	280.4219971	0.00110155
1432	1360.446421	280.427002	0.00110155
1433	1360.44632	280.4249878	0.00110155
1434	1360.446391	280.4339905	0.00110155
1435	1360.446279	280.4379883	0.00110155
1436	1360.446045	280.428009	0.00110155
1437	1360.445791	280.4649963	0.00110155
1438	1360.445536	280.4869995	0.00110155
1439	1360.445272	280.5180054	0.00110155
1440	1360.445028	280.5509949	0.00110155
1441	1360.444763	280.57901	0.003429548
1442	1360.444509	280.6300049	0.002864546
1443	1360.444336	280.6719971	0.00190866
1444	1360.444336	280.7160034	0.001383325
1445	1360.444336	280.7539978	0.001196577
1446	1360.444336	280.7900085	0.001133512
1447	1360.444336	280.82901	0.001112291
1448	1360.444336	280.868988	0.002828413
1449	1360.444336	280.9110107	0.002634554
1450	1360.444336	280.9509888	0.001775254
1451	1360.444336	280.9899902	0.001331815
1452	1360.444336	281.0239868	0.001178753
1453	1360.444336	281.0580139	0.047488
1454	1360.444336	281.0880127	0.01875237
1455	1360.444336	281.1019897	0.006119636
1456	1360.444356	281.1090088	0.003161728
1457	1360.445984	281.1149902	0.002021278
1458	1360.452871	281.1019897	0.179800423
1459	1360.458872	281.1099854	0.117941586
1460	1360.4652	281.1340027	0.025786326
1461	1360.471415	281.1600037	0.007529891
1462	1360.477671	281.1789856	0.003545641
1463	1360.483388	281.1940002	0.003742893
1464	1360.484273	281.2309875	0.002794696
1465	1360.476044	281.2650146	0.00185481
1466	1360.47113	281.3009949	0.001361585
1467	1360.465037	281.3359985	0.001189185
1468	1360.459381	281.3779907	0.001131019
1469	1360.453552	281.4140015	0.001111453
1470	1360.447774	281.4549866	0.005011737
1471	1360.44755	281.4700012	0.003773732
1472	1360.464793	281.4930115	0.0023808
1473	1360.477346	281.5209961	0.001591229
1474	1360.491628	281.5589905	0.001266701
1475	1360.505259	281.5910034	0.001157098
1476	1360.519124	281.6289978	0.001120218
1477	1360.530243	281.6589966	0.019915782
1478	1360.527802	281.7099915	0.014336782
1479	1360.511607	281.7630005	0.006425714
1480	1360.500427	281.8240051	0.007746068
1481	1360.487417	281.8770142	0.004746976
1482	1360.475077	281.9309998	0.002757406
1483	1360.462484	281.9899902	0.001797835
1484	1360.450511	282.0469971	0.001337618
1485	1360.44869	282.1059875	0.001180934
1486	1360.472646	282.1640015	0.001128226
1487	1360.487193	282.2250061	0.001110512
1488	1360.505157	282.2749939	0.00110456
1489	1360.521891	282.32901	0.001102561
1490	1360.539093	282.3919983	0.00110189
1491	1360.551056	282.447998	0.001101664
1492	1360.542674	282.5010071	0.001101588
1493	1360.524963	282.5599976	0.001101563
1494	1360.510681	282.6130066	0.001101554
1495	1360.495117	282.6700134	0.001101552
1496	1360.480062	282.7229919	0.001101551
1497	1360.464813	282.7749939	0.00110155
1498	1360.451131	282.8309937	0.00110155
1499	1360.449961	282.8880005	0.00110155
1500	1360.471252	282.9400024	0.00110155
1501	1360.484355	282.9960022	0.00110155
1502	1360.500437	283.0409851	0.003943168
1503	1360.515432	283.0870056	0.003175905
1504	1360.530853	283.1359863	0.002084788
1505	1360.540802	283.178009	0.003358372
1506	1360.530986	283.2179871	0.002907031
1507	1360.515757	283.2479858	0.001919983
1508	1360.502513	283.2739868	0.001385533
1509	1360.488546	283.302002	0.001196773
1510	1360.474823	283.3330078	0.003482973
1511	1360.461029	283.3710022	0.00636872
1512	1360.450083	283.4039917	0.00390174
1513	1360.454417	283.4360046	0.002586725
1514	1360.476095	283.4670105	0.001706514
1515	1360.491455	283.5	0.00130553
1516	1360.509125	283.5289917	0.001170068
1517	1360.52595	283.5379944	0.001124563
1518	1360.54306	283.5549927	0.001109279
1519	1360.552439	283.5580139	0.001104146
1520	1360.53596	283.5580139	0.001102422
1521	1360.520152	283.5589905	0.001101843
1522	1360.504089	283.5480042	0.001101648
1523	1360.488088	283.5400085	0.001101583
1524	1360.472076	283.5280151	0.001101561
1525	1360.456085	283.5130005	0.001101554
1526	1360.452779	283.5039978	0.001101551
1527	1360.491638	283.493988	0.001101551
1528	1360.527812	283.4830017	0.004154527
1529	1360.564992	283.4809875	0.003298163
1530	1360.601766	283.4819946	0.002150489
1531	1360.638713	283.4719849	0.001481946
1532	1360.664337	283.4530029	0.001229836
1533	1360.644033	283.4599915	0.001144699
1534	1360.600545	283.4580078	0.001116051
1535	1360.565531	283.45401	0.001106422
1536	1360.527405	283.4419861	0.001103186
1537	1360.490407	283.4289856	0.00355661
1538	1360.472788	283.4020081	0.002943846
1539	1360.543569	283.3800049	0.00195427
1540	1360.678406	283.3389893	0.001400956
1541	1360.789937	283.3110046	0.003319976
1542	1360.909943	283.2550049	0.002972805
1543	1361.025441	283.2080078	0.001958291
1544	1361.07432	283.1539917	0.00140082
1545	1360.932465	283.0910034	0.001201891
1546	1360.860107	283.0339966	0.001135219
1547	1360.76239	282.9830017	0.001112854
1548	1360.67394	282.92099	0.001105346
1549	1360.582102	282.8659973	0.001102825
1550	1360.493825	282.7990112	0.001101978
1551	1360.474213	282.7369995	0.001101694
1552	1360.640686	282.6870117	0.001101598
1553	1360.73938	282.6260071	0.001101566
1554	1360.862752	282.5650024	0.007363858
1555	1360.977122	282.4949951	0.004882703
1556	1361.053406	282.4490051	0.002813768
1557	1360.979502	282.394989	0.001831719
1558	1360.880096	282.3340149	0.001349353
1559	1360.789988	282.2630005	0.001184847
1560	1360.696503	282.2139893	0.001129536
1561	1360.604218	282.1470032	0.001110952
1562	1360.521271	282.0799866	0.001104708
1563	1360.53419	282.0109863	0.001102611
1564	1360.737142	281.9299927	0.001101906
1565	1360.87089	281.8559875	0.00110167
1566	1361.029836	281.7869873	0.00110159
1567	1361.172201	281.7130127	0.008663765
1568	1361.220144	281.6210022	0.005578227
1569	1361.046712	281.5369873	0.00304601
1570	1360.953939	281.4609985	0.001965714
1571	1360.831736	281.3770142	0.001399697
1572	1360.720286	281.302002	0.001201831
1573	1360.60493	281.2290039	0.001135251
1574	1360.54189	281.144989	0.001112872
1575	1360.673381	281.0499878	0.001105353
1576	1360.872264	280.9559937	0.002157745
1577	1361.04659	280.8680115	0.002041148
1578	1361.229899	280.7739868	0.001471267
1579	1361.33316	280.6799927	0.001225992
1580	1361.182831	280.5840149	0.001143273
1581	1361.049296	280.480011	0.00111555
1582	1360.909668	280.3819885	0.00110625
1583	1360.772268	280.2810059	0.001103128
1584	1360.634043	280.1799927	0.00110208
1585	1360.613953	280.0830078	0.038674915
1586	1360.962372	279.9859924	0.014685198
1587	1361.216298	279.8859863	0.005165516
1588	1361.504628	279.7839966	0.002860806
1589	1361.65979	279.6749878	0.001852183
1590	1361.431681	279.5690002	0.002540661
1591	1361.267242	279.4670105	0.00227554
1592	1361.07962	279.3529968	0.00158238
1593	1360.900441	279.2369995	0.001263597
1594	1360.71817	279.1170044	0.001155887
1595	1360.659149	278.9859924	0.029987468
1596	1361.011169	278.8670044	0.022535558
1597	1361.354136	278.7309875	0.007459971
1598	1361.691996	278.618988	0.003548689
1599	1361.850789	278.5310059	0.002215227
1600	1361.558014	278.4400024	0.095265029
1601	1361.429708	278.3760071	0.05775891
1602	1361.241516	278.3049927	0.01368818
1603	1361.075114	278.2170105	0.005091506
1604	1360.900787	278.1400146	0.002821145
1605	1360.72934	278.0629883	0.001826837
1606	1360.572642	278.0029907	0.001347026
1607	1360.557139	277.9570007	0.001184014
1608	1360.80601	277.8959961	0.001129251
1609	1360.958567	277.8210144	0.001110855
1610	1361.14622	277.7929993	0.001104676
1611	1361.289388	277.7600098	0.0011026
1612	1361.280212	277.7640076	0.001101903
1613	1361.119629	277.756012	0.001101669
1614	1361.014242	277.7059937	0.00110159
1615	1360.888733	277.6359863	0.001101563
1616	1360.770538	277.5710144	0.001101554
1617	1360.649679	277.4970093	0.001101552
1618	1360.529806	277.4339905	0.001101551
1619	1360.47757	277.3590088	0.00110155
1620	1360.63974	277.2869873	0.00110155
1621	1360.751933	277.2189941	0.004689725
1622	1360.882324	277.1629944	0.003918053
1623	1361.006083	277.0910034	0.002414963
1624	1361.093363	277.0400085	0.001608287
1625	1361.034424	276.9949951	0.001271504
1626	1360.935547	276.9379883	0.001158577
1627	1360.851206	276.8819885	0.001120697
1628	1360.761546	276.8439941	0.00110798
1629	1360.673848	276.79599	0.00110371
1630	1360.585409	276.75	0.001102275
1631	1360.497243	276.7149963	0.001101794
1632	1360.454	276.6799927	0.001101632
1633	1360.551676	276.6530151	0.001101577
1634	1360.613861	276.6270142	0.001101559
1635	1360.688965	276.605011	0.001101553
1636	1360.759349	276.5799866	0.001101551
1637	1360.829997	276.553009	0.004754766
1638	1360.857432	276.5369873	0.003634888
1639	1360.771139	276.5180054	0.002317387
1640	1360.726288	276.5020142	0.001559399
1641	1360.666331	276.4899902	0.109902667
1642	1360.611847	276.4819946	0.042723598
1643	1360.55541	276.4729919	0.010914123
1644	1360.499674	276.4649963	0.00443498
1645	1360.45989	276.4530029	0.002588343
1646	1360.484487	276.4410095	0.008800958
1647	1360.537038	276.4349976	0.005539061
1648	1360.579397	276.4299927	0.003032278
1649	1360.625448	276.4230042	0.001957705
1650	1360.670186	276.4169922	0.001396563
1651	1360.706757	276.4079895	0.001200774
1652	1360.700175	276.3970032	0.001134895
1653	1360.651744	276.3989868	0.001112753
1654	1360.618571	276.3859863	0.011544384
1655	1360.579844	276.3710022	0.007264466
1656	1360.543132	276.3640137	0.003598198
1657	1360.505666	276.3590088	0.00224676
1658	1360.468486	276.3450012	0.0015184
1659	1360.448802	276.3320007	0.001241615
1660	1360.485321	276.3190002	0.001148603
1661	1360.511271	276.3080139	0.001117356
1662	1360.541056	276.3080139	0.002868937
1663	1360.569438	276.2950134	0.002666586
1664	1360.598348	276.2980042	0.001792482
1665	1360.619314	276.2850037	0.001338099
1666	1360.608134	276.2739868	0.00118086
1667	1360.578939	276.2720032	0.002926988
1668	1360.556325	276.2810059	0.010923757
1669	1360.531311	276.2850037	0.005174606
1670	1360.507161	276.2909851	0.002884104
1671	1360.482676	276.3049927	0.001869712
1672	1360.458364	276.3150024	0.001363283
1673	1360.444967	276.3320007	0.010024229
1674	1360.465688	276.3479919	0.01221337
1675	1360.476746	276.3680115	0.005136967
1676	1360.491302	276.3670044	0.002854001
1677	1360.504567	276.3869934	0.001846861
1678	1360.518331	276.4060059	0.001354185
1679	1360.529134	276.4379883	0.001186411
1680	1360.526255	276.4620056	0.001130055
1681	1360.509979	276.5050049	0.001111125
1682	1360.498596	276.5360107	0.001104766
1683	1360.485413	276.5690002	0.00110263
1684	1360.4729	276.6080017	0.001101913
1685	1360.460114	276.6340027	0.001101672
1686	1360.450775	276.6539917	0.001101591
1687	1360.460836	276.677002	0.001101564
1688	1360.495595	276.6960144	0.001101555
1689	1360.521342	276.7099915	0.001101552
1690	1360.550374	276.7109985	0.001101551
1691	1360.578206	276.7279968	0.00110155
1692	1360.606496	276.723999	0.00110155
1693	1360.620209	276.730011	0.008760205
1694	1360.588104	276.7489929	0.00524247
1695	1360.565104	276.7470093	0.086109422
1696	1360.538798	276.75	0.042391506
1697	1360.513733	276.7390137	0.011171756
1698	1360.48818	276.7460022	0.004494861
1699	1360.462799	276.7479858	0.002609643
1700	1360.453054	276.7470093	0.001706152
1701	1360.495178	276.7460022	0.001304882
1702	1360.533417	276.75	0.001169852
1703	1360.573079	276.7579956	0.001124494
1704	1360.612223	276.7569885	0.001109257
1705	1360.651571	276.7550049	0.001104139
1706	1360.678121	276.7489929	0.00110242
1707	1360.654795	276.7430115	0.001101842
1708	1360.61087	276.7449951	0.004289778
1709	1360.574443	276.7390137	0.003164278
1710	1360.535258	276.7359924	0.002070337
1711	1360.497121	276.7409973	0.001446719
1712	1360.496165	276.7330017	0.001217914
1713	1360.626282	276.7309875	0.001140685
1714	1360.766663	276.7250061	0.001114701
1715	1360.90332	276.7229919	0.001105968
1716	1361.041331	276.7170105	0.001103034
1717	1361.139119	276.7160034	0.001102049
1718	1361.078237	276.7170105	0.001101717
1719	1360.943899	276.7099915	0.001101606
1720	1360.836294	276.7059937	0.003229019
1721	1360.718974	276.6950073	0.003883978
1722	1360.610687	276.697998	0.003494067
1723	1360.634776	276.7009888	0.002297305
1724	1361.007456	276.7000122	0.001554865
1725	1361.253143	276.7080078	0.001254672
1726	1361.545095	276.7179871	0.001153074
1727	1361.682332	276.7189941	0.001118868
1728	1361.405365	276.7120056	0.001107368
1729	1361.270528	276.7070007	0.019347457
1730	1361.083944	276.7149963	0.010081295
1731	1360.916209	276.7229919	0.004302351
1732	1360.741628	276.730011	0.002548438
1733	1360.62678	276.7330017	0.001673842
1734	1360.767761	276.7390137	0.00129413
1735	1361.098551	276.7529907	0.00116627
1736	1361.360199	276.7600098	0.001123294
1737	1361.598602	276.7730103	0.001108855
1738	1361.589966	276.7900085	0.001104004
1739	1361.361745	276.8120117	0.003845861
1740	1361.213521	276.8349915	0.010001118
1741	1361.036163	276.855011	0.004742054
1742	1360.869425	276.8760071	0.002731554
1743	1360.698812	276.901001	0.001780821
1744	1360.604991	276.9259949	0.001331429
1745	1360.795888	276.9530029	0.00117884
1746	1361.075867	276.9859924	0.001127521
1747	1361.323385	277.0140076	0.001110275
1748	1361.535329	277.0440063	0.001104481
1749	1361.513947	277.0799866	0.001102534
1750	1361.28776	277.1090088	0.001101881
1751	1361.136159	277.1470032	0.001101661
1752	1360.957408	277.1879883	0.001101587
1753	1360.788564	277.2290039	0.001101563
1754	1360.652629	277.2630005	0.001101554
1755	1360.745026	277.3039856	0.001420059
1756	1361.149068	277.3510132	0.004359128
1757	1361.439616	277.3890076	0.00298073
1758	1361.705729	277.4419861	0.001956345
1759	1361.664683	277.4890137	0.001399691
1760	1361.421021	277.5400085	0.001202008
1761	1361.25117	277.605011	0.00113533
1762	1361.054454	277.6640015	0.016395507
1763	1360.867513	277.7319946	0.008965341
1764	1360.676992	277.79599	0.00405963
1765	1360.642039	277.8590088	0.002451132
1766	1361.080434	277.9129944	0.007008277
1767	1361.36853	277.9580078	0.00640865
1768	1361.682485	278.0169983	0.003369184
1769	1361.753499	278.0780029	0.002144404
1770	1361.453084	278.1350098	0.003447725
1771	1361.287964	278.1940002	0.002777963
1772	1361.073568	278.269989	0.001853911
1773	1360.877106	278.3340149	0.001362249
1774	1360.700521	278.4119873	0.001189451
1775	1360.767059	278.4909973	0.001131113
1776	1361.290517	278.5859985	0.001111485
1777	1361.647593	278.6830139	0.001104888
1778	1361.937673	278.7739868	0.001102671
1779	1361.767507	278.8659973	0.001101926
1780	1361.590393	278.9590149	0.001101677
1781	1361.415812	279.0539856	0.001101593
1782	1361.240295	279.144989	0.001101564
1783	1361.065135	279.2430115	0.058713842
1784	1360.889852	279.3399963	0.095324296
1785	1360.71461	279.4339905	0.024430236
1786	1360.5495	279.5320129	0.009739398
1787	1360.503448	279.6289978	0.004737862
1788	1360.713715	279.7290039	0.002729396
1789	1360.830627	279.8309937	0.001777868
1790	1360.981547	279.9330139	0.001330134
1791	1361.120076	280.0369873	0.001178382
1792	1361.190562	280.1409912	0.001127364
1793	1361.036804	280.2409973	0.001110222
1794	1360.955516	280.3320007	0.001104463
1795	1360.847799	280.4150085	0.001102529
1796	1360.749736	280.4920044	0.003154399
1797	1360.648173	280.5549927	0.004490408
1798	1360.547882	280.6229858	0.003163953
1799	1360.476563	280.6820068	0.002066122
1800	1360.526723	280.7529907	0.001444156
1801	1360.641897	280.8340149	0.001217018
1802	1360.733378	280.9190063	0.00114038
1803	1360.833496	280.993988	0.001114598
1804	1360.930461	281.072998	0.001105934
1805	1360.979218	281.1570129	0.001103022
1806	1360.871562	281.2340088	0.001102045
1807	1360.799255	281.321991	0.001101716
1808	1360.71405	281.4089966	0.001101606
1809	1360.633555	281.4960022	0.106100601
1810	1360.551392	281.5660095	0.055289587
1811	1360.517517	281.6480103	0.01354062
1812	1360.654683	281.7179871	0.005047443
1813	1360.820302	281.7900085	0.002804895
1814	1360.975545	281.8580017	0.001817267
1815	1361.134583	281.9309998	0.113680181
1816	1361.234385	281.9920044	0.135593818
1817	1361.12913	282.0589905	0.031876764
1818	1360.995911	282.1270142	0.008717296
1819	1360.872864	282.2000122	0.003864715
1820	1360.746114	282.2720032	0.002356904
1821	1360.620717	282.3460083	0.002823632
1822	1360.608866	282.4150085	0.00295894
1823	1360.951691	282.4769897	0.006798154
1824	1361.196116	282.5400085	0.003594357
1825	1361.47641	282.6180115	0.002291258
1826	1361.634928	282.6759949	0.001543523
1827	1361.443075	282.6929932	0.0012504
1828	1361.290761	282.6929932	0.00115159
1829	1361.124034	282.7080078	0.001118363
1830	1360.962565	282.7609863	0.001107198
1831	1360.799184	282.8250122	0.067768879
1832	1360.636495	282.8909912	0.026028898
1833	1360.572093	282.9219971	0.007339377
1834	1360.828512	282.9660034	0.003515717
1835	1361.043355	283.0280151	0.044098103
1836	1361.273366	283.0859985	0.019517174
1837	1361.451263	283.1489868	0.00651637
1838	1361.417867	283.197998	0.003277802
1839	1361.216441	283.2529907	0.00208154
1840	1361.076223	283.3110046	0.001444875
1841	1360.688365	283.3819885	0.001216896
1842	1360.724141	283.4670105	0.001140298
1843	1360.827362	283.5279846	0.001114566
1844	1360.962474	283.5660095	0.001105922
1845	1361.006968	283.6090088	0.001103019
1846	1361.173228	283.7250061	0.003865117
1847	1361.216685	283.8469849	0.003129919
1848	1361.006073	283.9360046	0.002059462
1849	1360.948558	284.0679932	0.00144322
1850	1360.948558	284.2070007	0.001216776
1851	1360.884833	284.3025627	0
1852	1360.7615	284.4008599	0
1853	1360.620667	284.5013848	0
1854	1360.512333	284.6035881	0.003616069
1855	1360.463167	284.7070122	0.001522485
1856	1360.4965	284.811718	0.000339364
1857	1360.623167	284.9206047	5.68707E-05
1858	1360.820667	285.0370903	0
1859	1361.029	285.1647454	0
1860	1361.092333	285.3069878	0.000955639
1861	1360.9815	285.466137	0.000673436
1862	1360.8115	285.6395684	0.020473018
1863	1360.6815	285.8234063	0.012717146
1864	1360.569	286.0138359	0.00467785
1865	1360.464833	286.2070122	0.001720092
1866	1360.392333	286.4000664	0.000535271
1867	1360.350667	286.5943108	0
1868	1360.493167	286.7920342	0
1869	1360.733167	286.9954949	0
1870	1360.959833	287.2070122	0
1871	1360.943167	287.4283562	0
1872	1360.885667	287.6595574	0.000475959
1873	1360.7015	287.9000664	0.003114598
1874	1360.532333	288.149395	0.000734801
1875	1360.360667	288.4069939	0.003702438
1876	1360.287333	288.6724358	0.001083465
1877	1360.293167	288.9454155	0.000238113
1878	1360.304	289.225689	3.2148E-05
1879	1360.353167	289.5129509	0
1880	1360.499833	289.8069878	0
1881	1360.642333	290.1070366	0
1882	1360.689	290.4103508	0
1883	1360.724833	290.713604	0.007799525
1884	1360.639833	291.0135918	0.059590504
1885	1360.4765	291.3069878	0.02770449
1886	1360.262333	291.5917778	0.017264941
1887	1360.154	291.8704338	0.006013106
1888	1360.099833	292.1467095	0.001430164
1889	1360.075667	292.4243279	7.04238E-05
1890	1360.139	292.7070122	0.00166041
1891	1360.394	292.9974785	0.000453371
1892	1360.549833	293.2947502	0.001376057
1893	1360.712333	293.5967522	0.00034335
1894	1360.825667	293.9015007	7.41445E-05
1895	1360.727333	294.2070122	8.22744E-06
1896	1360.529	294.5114861	0
1897	1360.3565	294.8141899	0
1898	1360.289833	295.114666	0.002645282
1899	1360.225667	295.412426	0.00078051
1900	1360.190667	295.7070122	0.000174333
1901	1360.157333	295.9986077	2.33873E-05
1902	1360.219	296.2904778	0.001589109
1903	1360.470667	296.5865593	0.026329805
1904	1360.749	296.890728	0.014458686
1905	1360.650667	297.2070122	0.005320449
1906	1360.7815	297.5376702	0.001956561
1907	1360.688167	297.8786736	0.004846834
1908	1360.672333	298.2243462	0.002413282
1909	1360.545667	298.5690117	0.000538145
1910	1360.399833	298.9069939	9.99223E-05
1911	1360.323167	299.2343254	0
1912	1360.309833	299.5536614	0.011836269
1913	1360.355667	299.8693352	0.010965404
1914	1360.459	300.1856499	0.002437997
1915	1360.755667	300.507	0.000508115
1916	1360.988167	300.8366204	0.003270328
1917	1361.137333	301.1735039	0.000983543
